 $NMID
 ID='/tmp/RtmpkuBl47/file1ee9628329c98', FMTDAT='(2E15.6)'
 VOLUME=1
 TRAMP=1
 $END
   1.376081E-03  -3.446260E-05
   1.749344E-03   8.183555E-04
   2.498276E-04   9.425172E-04
  -2.938285E-04   2.304920E-04
   3.172930E-05  -2.575782E-04
   3.454513E-04  -2.393826E-04
   2.678591E-04  -1.015566E-05
  -2.586981E-05   1.868287E-05
  -1.834570E-04  -1.181918E-04
  -1.870465E-04  -3.305477E-04
  -1.285381E-04  -5.224805E-04
   8.782514E-05  -5.994335E-04
   2.893871E-04  -4.225029E-04
   2.402701E-04  -1.703354E-04
  -4.261616E-06  -1.536338E-04
  -1.913541E-04  -3.824427E-04
  -1.183297E-04  -5.537667E-04
   9.538441E-05  -5.186640E-04
   2.319265E-04  -3.691170E-04
   2.238173E-04  -1.996518E-04
   8.043557E-05  -8.071512E-05
  -7.201272E-05  -5.669616E-05
  -1.947534E-04  -1.279800E-04
  -1.488867E-04  -1.869401E-04
  -7.580349E-05  -1.208895E-04
  -1.791611E-04   5.793867E-06
  -4.177179E-04  -3.356252E-05
  -4.864422E-04  -2.197041E-04
  -3.095193E-04  -3.658931E-04
  -1.165080E-04  -2.554101E-04
  -1.248559E-04  -7.068113E-05
  -3.170386E-04   5.272731E-05
  -4.889988E-04  -7.710201E-06
  -5.333427E-04  -1.063233E-04
  -4.883261E-04  -2.124638E-04
  -3.968904E-04  -2.254614E-04
  -3.724276E-04  -1.859686E-04
  -4.023991E-04  -8.760093E-05
  -4.940278E-04  -8.844204E-05
  -5.471955E-04  -1.797923E-04
  -4.576300E-04  -2.679074E-04
  -3.010447E-04  -2.182770E-04
  -3.112156E-04  -5.144985E-05
  -4.595885E-04   2.463200E-05
  -5.557070E-04  -6.400398E-05
  -5.103429E-04  -1.821778E-04
  -4.051570E-04  -1.840816E-04
  -3.710217E-04  -4.403471E-05
  -4.097833E-04   8.269558E-05
  -5.906983E-04   1.351889E-04
  -7.205151E-04   6.548059E-05
  -7.827189E-04  -1.036071E-04
  -6.804487E-04  -2.137837E-04
  -5.315957E-04  -2.000442E-04
  -4.941498E-04  -9.538361E-05
  -5.502003E-04  -1.997058E-05
  -6.199243E-04  -7.046392E-05
  -6.143132E-04  -1.436873E-04
  -5.214086E-04  -1.336244E-04
  -5.224644E-04  -3.867180E-05
  -5.824602E-04   4.510873E-05
  -7.131234E-04   9.803189E-06
  -7.720947E-04  -8.867562E-05
  -7.217939E-04  -1.681566E-04
  -6.042230E-04  -2.040596E-04
  -5.102750E-04  -1.317207E-04
  -4.855052E-04  -4.640358E-05
  -5.802193E-04   6.486164E-05
  -6.796112E-04   4.825639E-05
  -7.364003E-04  -1.222125E-05
  -6.790065E-04  -6.175661E-05
  -6.822965E-04  -6.205833E-05
  -7.142426E-04  -3.158936E-05
  -7.915541E-04  -4.871137E-05
  -7.946091E-04  -1.600033E-04
  -6.846754E-04  -2.204442E-04
  -5.973964E-04  -1.567531E-04
  -5.822739E-04  -6.022491E-05
  -6.960689E-04   2.281534E-05
  -7.906209E-04   9.581709E-06
  -8.302033E-04  -1.054810E-04
  -8.085410E-04  -2.252539E-04
  -7.050234E-04  -2.347203E-04
  -6.058504E-04  -1.861606E-04
  -5.994857E-04  -9.922995E-05
  -6.275863E-04  -6.460777E-05
  -6.483721E-04  -8.691414E-05
  -6.189370E-04  -7.337728E-05
  -6.141455E-04  -4.430534E-06
  -6.672078E-04   6.136738E-05
  -7.913443E-04   5.764488E-05
  -8.568988E-04  -2.231888E-05
  -8.718181E-04  -1.358682E-04
  -7.861520E-04  -2.206000E-04
  -6.918871E-04  -2.064084E-04
  -6.508039E-04  -1.236731E-04
  -6.935003E-04  -6.689696E-05
  -7.636698E-04  -6.888245E-05
  -7.698847E-04  -1.199262E-04
  -7.302394E-04  -1.614726E-04
  -6.833973E-04  -9.844953E-05
  -7.050922E-04  -8.479398E-05
  -7.537295E-04  -8.323623E-05
  -7.775191E-04  -1.404088E-04
  -7.474443E-04  -2.060496E-04
  -6.436092E-04  -1.992352E-04
  -5.713491E-04  -1.364883E-04
  -6.002777E-04  -4.247722E-05
  -6.761207E-04   3.725904E-05
  -7.713073E-04   1.498099E-05
  -7.941618E-04  -5.526489E-05
  -7.566428E-04  -1.136065E-04
  -6.996224E-04  -9.790694E-05
  -6.727697E-04  -7.390158E-05
  -6.993932E-04  -6.125410E-05
  -7.460396E-04  -6.752153E-05
  -7.335116E-04  -1.122977E-04
  -6.926666E-04  -1.314795E-04
  -6.598765E-04  -9.396445E-05
  -7.076930E-04  -5.910965E-05
  -7.684471E-04  -6.787298E-05
  -7.625999E-04  -1.429745E-04
  -7.064814E-04  -1.921630E-04
  -6.155483E-04  -1.651293E-04
  -5.781073E-04  -8.945435E-05
  -6.222617E-04  -3.520423E-05
  -6.781036E-04  -2.308245E-05
  -7.068608E-04  -7.354666E-05
  -6.736116E-04  -1.093262E-04
  -6.455251E-04  -1.023843E-04
  -5.986745E-04  -4.532153E-05
  -6.476855E-04  -3.101595E-07
  -7.040550E-04  -1.189395E-05
  -7.304015E-04  -5.663931E-05
  -7.097815E-04  -8.535973E-05
  -6.427460E-04  -9.586589E-05
  -6.349455E-04  -5.034814E-05
  -6.505104E-04  -9.975280E-06
  -6.957861E-04  -4.715400E-05
  -6.967002E-04  -1.121227E-04
  -6.772574E-04  -1.477128E-04
  -5.973470E-04  -1.408657E-04
  -5.398953E-04  -7.066250E-05
  -5.475536E-04   2.088665E-06
  -6.093343E-04   2.668824E-05
  -6.696146E-04  -2.592098E-05
  -6.678086E-04  -3.896843E-05
  -6.367018E-04  -6.945933E-05
  -6.039803E-04  -4.042630E-05
  -6.329563E-04  -5.600764E-05
  -6.330786E-04  -3.402951E-05
  -5.903098E-04  -6.629505E-05
  -5.548515E-04  -6.004682E-05
  -4.982621E-04  -3.065763E-05
  -5.358967E-04   3.221844E-05
  -5.912498E-04   6.244326E-05
  -6.348706E-04   5.453153E-05
  -6.433988E-04  -5.021255E-06
  -6.250968E-04  -2.571792E-05
  -5.856935E-04  -4.269867E-05
  -5.815080E-04  -1.549865E-05
  -5.886312E-04  -4.316520E-06
  -5.845980E-04  -1.758864E-05
  -5.710564E-04  -3.543976E-05
  -5.315451E-04  -1.064871E-05
  -5.213986E-04   1.351559E-05
  -5.442272E-04   5.249117E-05
  -5.622942E-04   4.053421E-05
  -5.499718E-04  -8.394112E-06
  -5.221780E-04  -5.316355E-05
  -4.850239E-04  -1.771204E-05
  -4.314502E-04   1.020991E-05
  -4.674446E-04   6.886924E-05
  -5.346492E-04   1.147299E-04
  -5.485870E-04   1.157410E-04
  -5.478938E-04   7.203985E-05
  -5.389703E-04   3.619054E-05
  -5.330291E-04   4.338902E-05
  -5.179928E-04   2.779438E-05
  -5.310063E-04   4.384306E-05
  -5.093446E-04   1.408535E-05
  -4.965424E-04  -4.648318E-07
  -4.381900E-04   1.624209E-05
  -3.921708E-04   7.265094E-05
  -4.407177E-04   1.233161E-04
  -4.499716E-04   1.409629E-04
  -5.071556E-04   1.249474E-04
  -5.178896E-04   9.015629E-05
  -4.638735E-04   5.836916E-05
  -4.403297E-04   6.785492E-05
  -4.334526E-04   8.326051E-05
  -4.243351E-04   8.898635E-05
  -4.470749E-04   1.098969E-04
  -4.253595E-04   9.465120E-05
  -4.120377E-04   9.124046E-05
  -4.040365E-04   1.007272E-04
  -4.121102E-04   1.330902E-04
  -4.486461E-04   1.412077E-04
  -4.553692E-04   1.208718E-04
  -4.304340E-04   8.913584E-05
  -3.868071E-04   9.595917E-05
  -3.622003E-04   1.117983E-04
  -3.738084E-04   1.363267E-04
  -3.806954E-04   1.246966E-04
  -4.062215E-04   1.432848E-04
  -4.169214E-04   1.260391E-04
  -3.810338E-04   1.132806E-04
  -3.792545E-04   1.265582E-04
  -3.827600E-04   1.103013E-04
  -3.561005E-04   1.253813E-04
  -3.463496E-04   1.115499E-04
  -3.180188E-04   1.145091E-04
  -3.050081E-04   1.391064E-04
  -3.049523E-04   1.558519E-04
  -3.344926E-04   1.842537E-04
  -3.467635E-04   1.653244E-04
  -3.532853E-04   1.493589E-04
  -3.352346E-04   1.528914E-04
  -3.154609E-04   1.614965E-04
  -3.110564E-04   2.061663E-04
  -3.228272E-04   2.097481E-04
  -3.449249E-04   1.717312E-04
  -3.510142E-04   1.540909E-04
  -3.258091E-04   1.482066E-04
  -2.848308E-04   1.632171E-04
  -2.737826E-04   1.560224E-04
  -2.814191E-04   1.729719E-04
  -2.758148E-04   1.613489E-04
  -2.583216E-04   1.634496E-04
  -2.434399E-04   1.651025E-04
  -2.659870E-04   1.665627E-04
  -2.714639E-04   2.015503E-04
  -2.804357E-04   2.159830E-04
  -2.943184E-04   2.130163E-04
  -2.950326E-04   1.767395E-04
  -2.846168E-04   1.574743E-04
  -2.316940E-04   1.695068E-04
  -2.309432E-04   2.043007E-04
  -2.347224E-04   2.070937E-04
  -2.596101E-04   2.081386E-04
  -2.379984E-04   2.087743E-04
  -2.113196E-04   1.979383E-04
  -2.160782E-04   1.822476E-04
  -2.178600E-04   2.307938E-04
  -2.578665E-04   2.152950E-04
  -2.398202E-04   1.895582E-04
  -2.258056E-04   1.712183E-04
  -1.892277E-04   1.810827E-04
  -1.904828E-04   1.980388E-04
  -1.771405E-04   2.172027E-04
  -1.961798E-04   2.300809E-04
  -2.080239E-04   2.202948E-04
  -2.096257E-04   2.034042E-04
  -1.829991E-04   2.100633E-04
  -2.029356E-04   2.108379E-04
  -1.892146E-04   2.028804E-04
  -2.007513E-04   2.093720E-04
  -1.776063E-04   2.057285E-04
  -1.857441E-04   1.737922E-04
  -1.418491E-04   2.212390E-04
  -1.458221E-04   2.241346E-04
  -1.524525E-04   2.406311E-04
  -1.772325E-04   2.285506E-04
  -1.693668E-04   2.079062E-04
  -1.722700E-04   1.991795E-04
  -1.484207E-04   1.852099E-04
  -1.372958E-04   1.832586E-04
  -1.316627E-04   2.091892E-04
  -1.465550E-04   1.991014E-04
  -1.528802E-04   2.007356E-04
  -1.167303E-04   1.934543E-04
  -1.149550E-04   2.106179E-04
  -1.091496E-04   2.124829E-04
  -1.157192E-04   2.295934E-04
  -1.436936E-04   2.186022E-04
  -1.395311E-04   2.091082E-04
  -1.176757E-04   1.929048E-04
  -1.006971E-04   2.083037E-04
  -7.677413E-05   2.172061E-04
  -7.995772E-05   2.279339E-04
  -1.127624E-04   2.211192E-04
  -1.146763E-04   2.189510E-04
  -9.071006E-05   2.106855E-04
  -7.837762E-05   2.050744E-04
  -8.586738E-05   2.240979E-04
  -9.081128E-05   2.256639E-04
  -9.954110E-05   2.135532E-04
  -9.409963E-05   2.137507E-04
  -8.934914E-05   1.804535E-04
  -7.366227E-05   1.881498E-04
  -6.855428E-05   2.243420E-04
  -5.692930E-05   2.326084E-04
  -6.785002E-05   2.163845E-04
  -6.500215E-05   1.918136E-04
  -6.664361E-05   1.870683E-04
  -4.809944E-05   1.851222E-04
  -5.231225E-05   2.173323E-04
  -4.845658E-05   2.235297E-04
  -3.578738E-05   2.256567E-04
  -4.697559E-05   1.895490E-04
  -4.421031E-05   1.940785E-04
  -4.917986E-05   2.019470E-04
  -2.860331E-05   2.048118E-04
  -4.557014E-05   2.125846E-04
  -5.744228E-05   2.018205E-04
  -4.765711E-05   1.897477E-04
  -2.642363E-05   1.902768E-04
  -3.788890E-05   1.891183E-04
  -4.015235E-05   1.987698E-04
  -3.965184E-05   1.807417E-04
  -6.011215E-05   1.878799E-04
  -4.098106E-05   1.843003E-04
  -2.490648E-05   1.661052E-04
  -5.506805E-06   1.970665E-04
  -1.690407E-05   1.952461E-04
  -1.877640E-05   2.095682E-04
  -1.519542E-05   1.777647E-04
  -2.460733E-05   1.730530E-04
  -1.629387E-05   1.715378E-04
